	Pfr	Pi	Pr	S	V	Xa	Xi	Ya	Yi	preS	prepreS
0	10.0	0.0	0.0	0.0	30.0	0.0	6.0	0.9	0.0	0.0	200.0
1	9.7530991201545	0.003073401379550767	0.24382747846595323	0.0032376939727001364	34.42398473199655	0.017239590302390365	5.982760409697611	0.9	0.0	0.055492620958432035	199.94131050217803
2	9.51229424488125	0.012091042422826959	0.4756147126959263	0.042390409405285066	37.8692284311458	0.06333566635447535	5.936664333645525	0.9	0.0	0.39383563530023563	199.55964465999722
3	9.27743486316428	0.026757521666907015	0.6958076151688177	0.18463380377513394	40.53308649613019	0.1307893952679311	5.86921060473207	0.9	0.0	1.177526073019153	198.60839527528407
4	9.048374180242462	0.04678840131919739	0.9048374184383446	0.5036362178049096	42.154569466018934	0.21330789367415423	5.786692106325845	0.9	0.0	2.468101655095383	196.9172848995625
5	8.824969025731598	0.07190984564728307	1.103121128621122	1.0609639523388246	40.42651476882171	0.3057195776556071	5.694280422344392	0.9	0.0	4.253216075263444	194.38484047449927
6	8.607079764139044	0.1018582708454105	1.2910619650155484	1.8964687646675975	34.33488971128992	0.4038635110152822	5.596136488984717	0.9	0.0	6.468981672564328	190.97007987967277
7	8.394570207583289	0.13638000570467404	1.4690497867120378	3.0247966151256023	27.500344988783585	0.5044660804290702	5.49553391957093	0.9	0.0	9.018735002488867	186.68318872446147
8	8.187307530682975	0.17523096286078332	1.6374615064562417	4.436166383298264	21.626256923164206	0.6050144818399116	5.394985518160087	0.9	0.0	11.788620087286498	181.57547748944944
9	7.985162187508101	0.2181763200437868	1.7966614924481128	6.0997690712089945	16.91158457674406	0.7036344115037494	5.29636558849625	0.9	0.0	14.660235441912604	175.7291694972403
10	7.788007830631623	0.2649902114649559	1.9470019579034217	7.968743243425472	13.201975916332529	0.7989768877950663	5.201023112204932	0.9	0.0	17.520258828325055	169.24762041121218
11	7.595721232177924	0.31545542878526595	2.0888233390368107	9.985784368824715	10.301692432930142	0.8901167189639752	5.109883281036023	0.9	0.0	20.267332485670632	162.24646779578816
12	7.408182206769079	0.3693631311491747	2.2224546620817462	12.089218201615983	8.030314666255084	0.9764637288204219	5.023536271179576	0.9	0.0	22.816422263517595	154.84604574711113
13	7.225273536405648	0.42651256440586344	2.3482138991884876	14.218615938939697	6.2604180356718375	1.057687202253809	4.9423127977461885	0.9	0.0	25.10102644491378	147.1652474681076
14	7.046880897207445	0.48671078912270943	2.466408313669845	16.320900824126273	4.877361285455364	1.1336526024775142	4.866347397522484	0.9	0.0	27.073570805665426	139.3168608024765
15	6.87289278796398	0.5497724171033941	2.577334794932626	18.36096650938233	3.801469920739236	1.2043703811391038	4.795629618860894	0.9	0.0	28.704494012749457	131.40431669297354
16	6.703200460442957	0.6155193561250321	2.68128018343201	20.3293860196259	2.9614961751286883	1.2699542918357083	4.7300457081642895	0.9	0.0	29.98043438102332	123.51962758033962
17	6.537697851415713	0.6837805626592885	2.778521585924998	22.26800452168769	2.3080742460797907	1.3305890323726366	4.6694109676273605	0.9	0.0	30.901890481457468	115.74234489650156
18	6.37628151636409	0.7543918023708956	2.869326681265014	24.2802097655867	1.798048316904164	1.3865045822739974	4.613495417726	0.9	0.0	31.48064386676126	108.13930571274021
19	6.218850564824161	0.8271954181462431	2.953954017029595	26.571287797571678	1.4012893775229156	1.4379573823847172	4.56204261761528	0.9	0.0	31.737174200292454	100.7649727279805
20	6.065306597326447	0.9020401054265461	3.0326532972470073	29.328504536771888	1.091632874885185	1.4852157100563306	4.514784289943666	0.9	0.0	31.6982175695289	93.66219667897008
21	5.915553643893017	0.9787806946253074	3.1056656614816753	32.66790886530566	0.8507071329043415	1.5285498428076523	4.471450157192344	0.9	0.0	31.394601730927988	86.86322414644472
22	5.7694981040531435	1.0572779404176602	3.1732239555291963	36.296066380406266	0.6626843684975328	1.5682243771182345	4.431775622881762	0.9	0.0	30.859360765878467	80.39087703544229
23	5.62704868833995	1.1373983176947238	3.235552993965326	39.891697196947845	0.516401125891453	1.6044939565785532	4.3955060434214435	0.9	0.0	30.126229414699765	74.25974338530187
24	5.488116361231531	1.2190138239823474	3.2928698147861217	43.01433037209196	0.40226007626882654	1.63759964085663	4.362400359143367	0.9	0.0	29.228388703844885	68.47741163320359
25	5.352614285500846	1.3020017881294002	3.3453839263697533	45.57604203993298	0.3134665487874348	1.6677679092203825	4.3322320907796135	0.9	0.0	28.19760673374017	63.04556997970752
26	5.2204577679396325	1.3862446850764678	3.3932975469838995	47.47551649607804	0.24419668828080374	1.6952091484298333	4.3047908515701625	0.9	0.0	27.0635117473902	57.961118441379504
27	5.091564206422388	1.471629956521326	3.436805837056286	48.81683020545871	0.19031423010284698	1.7201185065566744	4.2798814934433205	0.9	0.0	25.853260546526016	53.21704882796234
28	4.965853038277354	1.558049837302925	3.476097124419721	49.63277454748038	0.14828591958871687	1.7426752726230785	4.257324727376917	0.9	0.0	24.591169735004865	48.803379961258365
29	4.8432456899322265	1.6454011873308272	3.511353122736946	50.04306434403377	0.11559482182558517	1.7630447848496744	4.236955215150321	0.9	0.0	23.298777784255527	44.70777454053785
30	4.723665527803114	1.733585328892095	3.5427491433047917	50.101535776662814	0.09009973374621535	1.7813779350682166	4.218622064931778	0.9	0.0	21.99466062004251	40.91631405392312
31	4.607037810395575	1.8225078891700475	3.570454300434378	49.899255765752024	0.07027170325600021	1.7978138108868307	4.202186189113164	0.9	0.0	20.69479325918999	37.41383951282152
32	4.493289641588985	1.912078647822812	3.5946317105882026	49.480944149284646	0.05481255736051277	1.8124786835487374	4.1875213164512575	0.9	0.0	19.412365583795033	34.18464299163104
33	4.382349925076836	2.0022113894775444	3.615438685445619	48.9056584691955	0.042783402880665115	1.8254891419179238	4.174510858082071	0.9	0.0	18.158368298994333	31.212556792245287
34	4.274149319924201	2.0928237609367133	3.633026919139084	48.21132054123831	0.033415970268589196	1.836951397093549	4.1630486029064455	0.9	0.0	16.941497567683214	28.481456469109876
35	4.168620197230916	2.183837133038198	3.647542669730885	47.433167768139505	0.0261259164901609	1.8469630832679231	4.153036916732072	0.9	0.0	15.768561257117026	25.975387544275165
36	4.065696597860013	2.2751764669576513	3.6591269351823343	46.5986844590417	0.02045348209116467	1.8556137295157515	4.144386270484244	0.9	0.0	14.644634944487787	23.67878551974911
37	3.9653141912114647	2.366770184851137	3.6679156239373967	45.73049973657162	0.016041854392746385	1.862985665791451	4.137014334208544	0.9	0.0	13.57331377926243	21.57659871455303
38	3.8674102350134145	2.458550044694765	3.6740397202918182	44.8467622796618	0.012612706310064333	1.8691546767152019	4.130845323284793	0.9	0.0	12.556911694089823	19.654394252618225
39	3.771923536106218	2.55045101919521	3.67762544469857	43.96198272970646	0.009949352298155996	1.8741906561285608	4.125809343871433	0.9	0.0	11.596662297559174	17.89842458865682
40	3.678794412194724	2.6424111786461157	3.678794409159158	43.08761237510218	0.00788294979082575	1.8781581721473783	4.121841827852615	0.9	0.0	10.692895126049113	16.295673313204887
41	3.5879646545449004	2.734371577609372	3.677663767845725	42.23255903609513	0.006281966430829855	1.8811169849313545	4.118883015068638	0.9	0.0	9.845197592617522	14.833878447140656
42	3.4993774916014777	2.826276145303803	3.6743463630947173	41.40361477397899	0.005043907364432859	1.8831225065589812	4.116877493441011	0.9	0.0	9.05255745389769	13.50154041903679
43	3.4129775535038807	2.9180715795872625	3.6689508669088546	40.60581725722591	0.004088893850111219	1.8842262143182078	4.115773785681784	0.9	0.0	8.313488699270104	12.287916700542107
44	3.328710837478262	3.0097072444215294	3.6615819181002065	39.84275482649101	0.0033546553620913016	1.8844760195473036	4.115523980452688	0.9	0.0	7.626140632186991	11.183006715124924
45	3.246524674084011	3.1011350707126337	3.652340255203353	39.11682427722265	0.0027926320409213208	1.8839165976635404	4.116083402336451	0.9	0.0	6.988391820218156	10.17752911630824
46	3.1663676942936396	3.19230946042245	3.641322845283908	38.42944897848397	0.002364939439132611	1.8825896831094178	4.117410316890574	0.9	0.0	6.397929944610998	9.262893612053055
47	3.0881897973854664	3.2831871938504653	3.628623008764065	37.781263314437695	0.0020420058813556854	1.8805343332437088	4.119465666756283	0.9	0.0	5.852319015058185	8.431168917172618
48	3.0119421196290364	3.373727339987635	3.6143305403833255	37.17226854280216	0.001800733579129124	1.8777871645625002	4.122212835437491	0.9	0.0	5.349055243980768	7.675048217774716
49	2.937577003743696	3.4638911698471437	3.598531826409157	36.60196424524419	0.0016230677587489822	1.8743825643913665	4.125617435608625	0.9	0.0	4.885612919121099	6.987813217671814
50	2.865047969111246	3.5536420726797195	3.5813099582090313	36.069458911393724	0.0014948835201466927	1.870352880806468	4.129647119193523	0.9	0.0	4.459481508646284	6.3632976385653555
51	2.794309682724037	3.642945474983901	3.5627448422920582	35.573562643153856	0.0014051200544460776	1.865728593249381	4.134271406750609	0.9	0.0	4.068195165889586	5.795850848462157
52	2.7253179308503674	3.731768762224312	3.542913306925317	35.11286453375318	0.0013451073627862532	1.8605384660095392	4.139461533990451	0.9	0.0	3.709355697584593	5.280302142152467
53	2.6580295913994605	3.8200812031735896	3.5218892054269464	34.68579691092977	0.0013080427107995004	1.8548096864957033	4.145190313504287	0.9	0.0	3.380649963213523	4.811926066503352
54	2.5924026069687542	3.907853876796142	3.4997435162351	34.29068833269654	0.0012885834919147013	1.8485679899889873	4.1514320100110025	0.9	0.0	3.0798625713195342	4.386409078273959
55	2.528395958556655	3.9950596015943294	3.476544439849012	33.925806968380954	0.0012825305350603622	1.841837772368289	4.1581622276317	0.9	0.0	2.8048846419430418	3.9998177352430093
56	2.465969639924327	4.081672867340049	3.4523574927356204	33.5893957801428	0.0012865816413512431	1.8346421921205185	4.165357807879471	0.9	0.0	2.5537193115104846	3.648568551643534
57	2.4050846325904915	4.167669769117004	3.4272455982925014	33.27970073267993	0.0012981396214936773	1.8270032627912234	4.172996737208766	0.9	0.0	2.3244845703050347	3.3293995927964253
58	2.345702881443603	4.253027943601172	3.401269174955221	32.994993096445356	0.0013151626086526501	1.8189419368936253	4.181058063106365	0.9	0.0	2.115413943237503	3.039343839513399
59	2.28778727095617	4.337726507509154	3.3744862215346716	32.73358676812892	0.0013360471544890907	1.8104781821736027	4.189521817826387	0.9	0.0	1.9248554525987525	2.7757043182157815
60	2.231301601986338	4.421745998146201	3.3469523998674564	32.49385140833401	0.0013595367469646422	1.8016310510227724	4.198368948977217	0.9	0.0	1.7512692367300349	2.536030966172947
61	2.176210569152249	4.505068315987756	3.3187211148599904	32.27422208779104	0.0013846500480371772	1.7924187437396675	4.2075812562603225	0.9	0.0	1.5932241409329448	2.3180991813565743
62	2.12247973876503	4.587676669230333	3.289843592004632	32.07320603812016	0.0014106244400467816	1.7828586662584516	4.217141333741539	0.9	0.0	1.4493935460874936	2.1198899919308163
63	2.0700755273066145	4.669555520249505	3.260368952443875	31.88938701945017	0.001436871471676544	1.772967482894157	4.227032517105834	0.9	0.0	1.318550655911307	1.9395717703276378
64	2.0189651804389523	4.750690533904607	3.2303442856564346	31.721427743756166	0.0014629415709155338	1.7627611645917662	4.237238835408225	0.9	0.0	1.199563425069151	1.7754834103307366
65	1.9691167525314794	4.831068527631624	3.199814719836891	31.568070728426704	0.001488495992973455	1.7522550331124596	4.247744966887532	0.9	0.0	1.0913892769025426	1.6261188818897911
66	1.9204990866940619	4.9106774232674555	3.168823490038477	31.42813789829864	0.0015132844345261934	1.7414638015429913	4.258536198457	0.9	0.0	0.9930697308649487	1.4901130769090027
67	1.8730817953029235	4.989506200550506	3.137412004146565	31.30052920531011	0.0015371271025848882	1.730401611472579	4.269598388527411	0.9	0.0	0.9037250353046081	1.3662288595027945
68	1.826835241007392	5.067544852244174	3.1056199067484296	31.184220492223098	0.0015599003006668863	1.7190820671451386	4.280917932854852	0.9	0.0	0.822548880545271	1.253345235777554
69	1.7817305182055907	5.144784340831454	3.073485140962951	31.07826078984269	0.0015815248055848934	1.7075182668625055	4.292481733137485	0.9	0.0	0.7488032498185333	1.1504465607459116
70	1.737739434977496	5.2212165567304325	3.041044008292067	30.98176920516663	0.0016019564697230084	1.6957228318859012	4.30427716811409	0.9	0.0	0.681813451079324	1.0566127032365003
71	1.694834495464069	5.2968342779819615	3.008331226553964	30.893931530355836	0.0016211786075436799	1.6837079330578177	4.316292066942173	0.9	0.0	0.6209633607057575	0.9710100934071585
72	1.65298888268145	5.371631131362296	2.975379985956249	30.813996678798873	0.0016391958201110355	1.6714853153443106	4.32851468465568	0.9	0.0	0.5656909002012173	0.8928835815267341
73	1.6121764417594695	5.445601554874898	2.942222003365628	30.7412730343778	0.0016560289844494132	1.6590663204780134	4.340933679521977	0.9	0.0	0.5154837589721498	0.8215490409203228
74	1.5723716635940033	5.518740761577016	2.9088875748289764	30.67512478290315	0.0016717111908270935	1.6464619078647262	4.353538092135264	0.9	0.0	0.4698753697766814	0.7563866522654358
75	1.533549668902952	5.591044704697988	2.875405626399056	30.614968280188673	0.0016862844545782268	1.6336826739008892	4.366317326099101	0.9	0.0	0.4284411382866004	0.6968348106977215
76	1.4956861926758793	5.662510044007536	2.8418037633165802	30.56026849903945	0.0016997970629087902	1.6207388698354106	4.379261130164579	0.9	0.0	0.3907949241683701	0.6423846013704564
77	1.458757569007592	5.733134113393592	2.808108317598813	30.51053558722361	0.0017123014435958062	1.6076404182969612	4.392359581703029	0.9	0.0	0.35658576798499314	0.5925747931647098
78	1.4227407163061772	5.802914889610423	2.7743443940833967	30.46532156001669	0.0017238524633378099	1.5943969285967972	4.405603071403193	0.9	0.0	0.3254948558919567	0.5469873041329465
79	1.387613122866257	5.871850962159048	2.740535914974692	30.424217143906883	0.001734506080071707	1.5810177109072754	4.418982289092715	0.9	0.0	0.29723271241123944	0.5052430959549798
80	1.3533528327984397	5.939941504263063	2.7067056629384934	30.386848782317394	0.0017443182868324765	1.5675117894073527	4.432488210592638	0.9	0.0	0.2715366104015905	0.46699845817706837
81	1.3199384323061736	6.007186244904161	2.6728753227896616	30.352875809551136	0.0017533442954460637	1.5538879144783686	4.446112085521622	0.9	0.0	0.2481681866019975	0.43194164628516324
82	1.2873490363014284	6.073585441882698	2.6390655218158696	30.321987795430008	0.0017616379170754674	1.5401545740262415	4.459845425973749	0.9	0.0	0.22691125072507384	0.39978984072942814
83	1.2555642753508338	6.139139855869752	2.6052958687794097	30.293902060143107	0.0017692511038097743	1.5263200039997225	4.473679996000269	0.9	0.0	0.20756977594740547	0.3702863968711515
84	1.2245642829441212	6.203850725418122	2.571584991637752	30.268361356511818	0.0017762336214169731	1.5123921981685071	4.4876078018314844	0.9	0.0	0.18996605872605674	0.3431983584696796
85	1.1943296830769088	6.267719742900737	2.5379505740223496	30.245131715117154	0.0017826328283182178	1.4983789172197104	4.5016210827802805	0.9	0.0	0.17393903611511022	0.3183142097733667
86	1.1648415781400667	6.330749031345918	2.5044093905140112	30.224000446424316	0.0017884935399714794	1.484287697226425	4.515712302773566	0.9	0.0	0.15934274912301566	0.2954418435332089
87	1.1360815371080972	6.392941122139866	2.4709773407520323	30.204774293101437	0.0017938579613215294	1.470125857537724	4.529874142462267	0.9	0.0	0.14604494110709515	0.27440672433071656
88	1.1080315840191433	6.454298933567681	2.4376694824131713	30.18727772509652	0.0017987656728950016	1.455900508135528	4.544099491864464	0.9	0.0	0.13392578071879818	0.25505022851290976
89	1.0806741867394276	6.51482575016509	2.4045000630954774	30.17135136965103	0.0018032536585843573	1.4416185565001514	4.55838144349984	0.9	0.0	0.12287669947007852	0.2372281437679067
90	1.053992246005098	6.574525202853941	2.3714825511409554	30.156850568241722	0.0018073563652458004	1.4272867140230725	4.572713285976919	0.9	0.0	0.11279933457016611	0.22080931296499587
91	1.027969084734631	6.63340124983534	2.338629665430023	30.143644052400273	0.0018111057854872576	1.412911502000013	4.587088497999979	0.9	0.0	0.10360456808873615	0.20567440852840801
92	1.0025884376051128	6.691458158215131	2.3059534041797507	30.13161273046086	0.0018145315584174265	1.3984992572439738	4.601500742756017	0.9	0.0	0.0952116547838669	0.19171482423336433
93	0.9778344408858834	6.748700486337205	2.273465072776906	30.120648577624088	0.001817661084596765	1.384056137356491	4.6159438626435	0.9	0.0	0.08754743153596	0.17883167232346384
94	0.9536916225231882	6.8051330668008845	2.2411753106759216	30.110653621701896	0.0018205196391902427	1.369588125628473	4.630411874371518	0.9	0.0	0.08054559710606618	0.16693487998976866
95	0.9301448924696407	6.860760990139376	2.2090941173909777	30.10153901698899	0.001823130500139331	1.3551010356950695	4.644898964304922	0.9	0.0	0.07414606324879189	0.15594236875520673
96	0.9071795332524519	6.9155895891369905	2.177230877610551	30.093224200393625	0.0018255150703137865	1.3406005158797278	4.6593994841202635	0.9	0.0	0.0682943642232683	0.14577931436051886
97	0.8847811907745307	6.969624423763554	2.145594385461909	30.085636122296812	0.001827693001628232	1.3260920532981624	4.673907946701829	0.9	0.0	0.06294112306155152	0.13637747659315458
98	0.8629358653427057	7.022871266705075	2.114192867952213	30.078708546784263	0.001829682315544577	1.3115809777247809	4.688419022275211	0.9	0.0	0.05804156802612192	0.12767459310460522
99	0.8416299029174616	7.075336089470427	2.083034007612106	30.072381415145966	0.0018314995200014498	1.2970724652452654	4.702927534754726	0.9	0.0	0.05355509503692203	0.11961383086979513
100	0.8208499865787197	7.127025049054401	2.052124964366873	30.06660026747885	0.0018331597215671745	1.2825715417124668	4.717428458287524	0.9	0.0	0.04944487174002645	0.11214328967732058
